u,freq
0.00133746313294847,164.0017202799233
0.0013481321519924754,163.99672099377966
0.0013602750672989305,163.99122183516576
0.0013741699621617441,163.98517283769704
0.0013901762031544602,163.97851904845825
0.001408770544084606,163.97120003574568
0.0014306099858905459,163.96314935354937
0.0014566455057744452,163.9542939653602
0.001488350304186969,163.9445536428248
0.0015282576889485274,163.93384040304997
0.0015815471255015568,163.92205827732363
0.0016636082060504983,163.90910566479803
0.0017217835093175343,163.9034179410584
0.001764976429301974,163.90093031862693
0.0018053778213476222,163.89986873805782
0.001811693506657649,163.89980963412916
0.0018218497329789455,163.89977380681034
0.001833406658699167,163.89982108414583
0.0018411459657463893,163.89990462849914
0.001847610389225422,163.90000592836347
0.0018534470163924543,163.9001219502398
0.0018589446556355736,163.90025232587624
0.0018642527923750855,163.90039762767074
0.0018694697144399737,163.900558861538
0.0018746613757377759,163.9007373238232
0.001879874582078326,163.9009345404632
0.0018851476326162968,163.90115224713946
0.0018905094837858767,163.9013923954352
0.001895987785939912,163.90165715532274
0.0019016063308005685,163.90194892821768
0.0019073863869199762,163.9022703701718
0.0019133478157275132,163.90262441232647
0.001919511369709027,163.90301428363134
0.001925895847492294,163.90344354301527
0.0019325200386719778,163.90391610916643
0.001939402954392908,163.90443629585627
0.0019465646681496545,163.90500884998187
0.001954024597396468,163.90563899648538
0.001961803603332607,163.90633248358782
0.0019699226783341022,163.90709563652538
0.001978404096226697,163.90793541382237
0.0019872702884957245,163.90885947150136
0.001996545128567486,163.9098762318447
0.0020062536762488897,163.91099495999464
0.0020164221187062596,163.9122258484249
0.0020270785409414824,163.91358010915906
0.002038250641928681,163.9150700769603
0.002049969515401044,163.916709319465
0.0020622677167087653,163.91851276167608
0.002075178187586383,163.9204968221519
0.0020887371800162595,163.922679560929
0.0021029825367924354,163.92508084462216
0.0021179538589318893,163.92772252693797
0.0021336938156089106,163.93062864692607
0.002150246755816528,163.93382564808832
0.002167660345805115,163.93734261825222
0.002185984880698939,163.94121155432245
0.00220527344385453,163.94546765317318
0.0022255824965732927,163.95014963148884
0.0022469718988891705,163.95530007782733
0.0022695052814855152,163.9609658397245
0.0022932498817519876,163.96719844972222
0.0023182774889926334,163.97405459366232
0.0023446640978185673,163.98159662618343
0.0023724904082657945,163.9898931375352
0.002401842049292752,163.9990195771489
0.0024328102236544774,164.00905893948163
0.002465491669701396,164.02010251858565
0.0024999890336387105,164.03225073807738
0.0025364117034505944,164.0456140639634
0.0025748753347718096,164.06031400907003
0.0026155032297628003,164.0764842375052
0.0026584260313088216,164.09427177990918
0.002703782560961496,164.11383837002214
0.0027517204420961752,164.13536191494387
0.0028023958025773367,164.1590381125707
0.002855974611781621,164.1850822304788
0.0029126331564731955,164.21373106285617
0.0029725576874289573,164.2452450832334
0.0030359465213421434,164.2799108120648
0.0031030091287913386,164.3180434215385
0.00317396794425308,164.35998960039603
0.003249058147353998,164.4061307054841
0.0033285292466145025,164.4568862281143
0.00341264522362929,164.51271760718222
0.0035016858037564243,164.5741324232673
0.003595947271913855,164.6416890120002
0.0036957436967346596,164.71600153834635
0.0038014084884765782,164.7977455778079
0.00391329581664735,164.88766425495183
0.0040317829451146,164.98657499439838
0.0041572721114859395,165.09537694600772
0.004290200257636854,165.21505914060603
0.004431034043784583,165.34670947496377
0.00458029101979814,165.49152455303573
0.004738551866699889,165.65082050356872
0.00490649471174966,165.8260448012606
0.005084970084436797,166.0187890813692
0.005275202138969855,166.2308025884033
0.005357361591701769,166.3240853002405
0.005447037367008611,166.4266924469541
0.005545479094391526,166.53955191971951
0.005589083526033445,166.58920433709417
0.0056377387582473935,166.6438136720774
0.005659608946206695,166.6678361709485
0.005684315367710259,166.6942528627583
0.005695555465410661,166.70587087190611
0.005708389436762801,166.71864316043806
0.005723671851927087,166.73267041602045
0.005731415038622674,166.73881410992908
0.005735462691835471,166.74149069374346
0.005737613124682456,166.74264545636404
0.005738741635516649,166.7431370859468
0.005740341452567691,166.7436329862821
0.005741351066973819,166.74376429275182
0.0057424493937710125,166.74363337851958
0.005742999809985077,166.7433819066409
0.005743380849078094,166.74307729617865
0.0057436673428287914,166.74272898575913
0.005743888626383164,166.7423380135221
0.00574405835784686,166.74190263563568
0.00574412922201143,166.74141632535242
0.005744242471949428,166.74088381796415
0.005744310231354958,166.74029494167763
0.005744333609419521,166.7396446348645
0.0057443120893193814,166.73892715078534
0.005744191858930702,166.7381339692523
0.005744061128285917,166.73726162951246
0.005743878977513424,166.73630071492795
0.005743640735867549,166.7352424700465
0.005743341036952978,166.73407724646398
0.005742973753928551,166.73279441731998
0.005742531898292131,166.73138227849154
0.0057420076057263895,166.72982794867062
0.005741392073310192,166.72811725068075
0.005740675502697151,166.726234583121
0.005739846917286262,166.72416278038122
0.00573889414820547,166.72188295574742
0.005737803692937459,166.71937433017595
0.005736560536743155,166.7166140443243
0.005735148036320629,166.7135769503633
0.005733547783960594,166.71023538333054
0.005731739385648443,166.7065589100504
0.005729700226754405,166.70251405269036
0.005727405323453324,166.6980639840615
0.0057248270959599085,166.69316819279328
0.005721934903634715,166.68778211603225
0.005718694955439751,166.68185673312556
0.005715069906449452,166.67533812064823
0.0057110183778271125,166.66816696246931
0.005706494698033971,166.6602780097943
0.00570144832004925,166.65159948856234
0.005695823285430062,166.64205244700543
0.005689557779923654,166.63155003737745
0.005682583364347287,166.6199967270405
0.005674824341780412,166.60728742961854
0.00566619684868149,166.59330654988318
0.005656608024090531,166.57792693279052
0.00564595500025756,166.56100870751465
0.005634123736684208,166.54239801594352
0.005620987655639129,166.52192561414884
0.005606406388066986,166.49940533342522
0.005590223853061977,166.4746323883038
0.005572266642697808,166.44738151452435
0.00555234173867982,166.41740492145638
0.005530233981854255,166.38443003936464
0.005505703382221401,166.34815704154965
0.0054784819020607155,166.30825611867678
0.005448269423871967,166.26436448069336
0.00541472959377109,166.21608305858936
0.005377484523535488,166.16297287680285
0.005336108697383778,166.10455106246533
0.0052901216142452025,166.0402864559572
0.005238979219294787,165.96959478223806
0.005182063235033267,165.89183333956598
0.005118668501814121,165.80629515706968
0.005047987035294348,165.71220256814286
0.00496908854231289,165.6087001413382
0.004880895890562222,165.4948469044406
0.004782153631385568,165.36960779122563
0.0046713878795031265,165.2318442331664
0.004546854069947822,165.08030381075085
0.004406467818792577,164.91360887062424
0.004247713877464102,164.73024400524622
0.004067526469124601,164.5285422836722
0.0038621216483956536,164.30667009581322
0.0036268217636615803,164.06261050989207
0.003355845673470558,163.79414492711288
0.00304231732959591,163.4988329136445
0.0026791667391913208,163.17398993727005
0.002263348984172226,162.81666263861038
0.001809183274313594,162.4236010307922
0.0013690752475140954,161.99122800211535
0.0010131398340586975,161.51561002750788
0.0007618951075537422,160.99242502647297
0.0006031456023445108,160.46923798838398
0.0004971259896787151,159.94605020103023
0.0004222235721435822,159.42286210767438
0.0003667858758229512,158.89967387487872
0.00032420723783820624,158.37648557225646
